id,mass,timestep,x,y,z,x,y,z,
1,10.360256,0,6655.53638333282,498.498340085181,23.3652856359891,0.0759066404987607,-219.666469252372,9.76622889969455,
2,7.959045,0,6655.12367132038,499.19307404435,22.9278908000338,0.311351833248357,-219.748892050454,9.52308331432664,
3,6.485306,0,6654.70846751467,499.66744657232,23.685515620437,0.319886095554873,-219.797671847183,9.48175173806513,
4,5.476281,0,6655.05762370372,499.540326713213,23.5763776493363,0.32941388266231,-220.309912005285,9.60276129549586,
5,5.1344,0,6654.03311551919,499.538246010248,24.0678518845192,-0.126116784627108,-220.507852934158,9.73106963501338,
6,4.945388,0,6655.06615986311,499.800466689842,23.841483081483,0.0505081995087125,-218.98057652041,10.3594221573664,
7,4.802975,0,6653.51230498759,499.956573185741,24.2476409842033,0.0031420302841614,-220.401053009312,10.210300250326,
8,4.512315,0,6655.27486128865,500.037153936965,23.679560690534,0.419646611724677,-220.734561958952,9.7903097467697,
9,4.117568,0,6655.41961446207,499.770300568522,23.8536352100486,-0.556384531029751,-220.55197999606,9.504509106744,
10,3.902224,0,6655.00982531097,500.403913057922,24.5027658066623,-0.322738795340351,-219.614763545019,9.50066928572241,
11,3.664999,0,6654.88070606543,499.618519272581,24.0365019449184,0.112345500712695,-219.81885893072,10.3354875442539,
12,3.483121,0,6655.44095445751,499.486697210163,24.3889442427877,0.222070746739805,-220.126442965031,10.8915626726656,
13,3.305911,0,6654.879792552,498.533532123228,22.7728133877656,-0.249586190172773,-220.080803105039,10.4425680988867,
14,3.172498,0,6655.20546299371,499.922505692468,25.5277318913869,0.1029302197288,-220.564808991429,9.98422161626128,
15,2.997139,0,6654.83213134708,500.103366253063,24.4363116728684,-0.642555340573085,-220.208408121257,10.0866223094249,
16,2.762822,0,6654.15216468599,499.405157126223,23.5647509382145,-0.0155444946255679,-220.080642248172,10.2774974243223,
17,2.667298,0,6654.57026309907,500.111702572572,24.0989020198934,-0.460509797649833,-218.896932710743,10.0583638445198,
18,2.426048,0,6655.20922873323,499.775098147076,23.3784733525777,-0.918977035548666,-219.965772320041,9.97836967200452,
19,2.062285,0,6655.08997646658,500.164809264867,24.2642099632513,0.855879604475878,-220.468711824698,9.54379706082726,
20,2.030871,0,6655.70943096507,500.392378342569,24.2299774876548,-0.88853330287101,-220.551188410153,10.1578463048017,
21,1.900863,0,6654.96005687066,500.104287542183,24.035305190868,0.0098280663207768,-219.004223185622,9.72974287127744,
22,1.851381,0,6654.47496530502,502.230551043141,25.3033064673395,0.27396330560718,-220.250266604961,10.1127586811269,
23,1.728448,0,6654.37855838133,499.67550588668,23.3933855811697,0.10310574261583,-220.008687276042,9.25638589715354,
24,1.546941,0,6655.34144812689,500.124288656451,24.2222176951361,-0.625725070068122,-219.401076592578,10.4072134879891,
25,1.476942,0,6654.64548443136,499.693301057972,24.3732296438852,0.246116770793464,-220.393871772156,9.85256746502705,
26,1.473904,0,6655.65915841621,500.446783213629,23.8401928825159,0.126116293989299,-220.449628756056,9.37404197674317,
27,1.459134,0,6655.42260122768,500.252588912184,24.2939786941985,-0.431036938881656,-219.834073743304,10.2087112905187,
28,1.44669,0,6654.98944880134,499.988327408848,24.9161050240784,-0.223594076940556,-220.285113176893,10.6181825967957,
29,1.424403,0,6655.34833423953,500.011045607296,23.4273217614555,0.408236304351522,-219.222935718177,9.44285279117288,
30,1.379852,0,6654.70411274419,500.274282428668,23.5350425246193,-0.358990282642693,-220.100417453537,10.1488476622669,
31,1.374076,0,6654.97603135086,500.417400222712,24.2014782151079,0.32400389855384,-220.372280354787,10.1696656958542,
32,1.292642,0,6654.77180193793,500.426620842147,23.5120840653976,0.615894191666406,-219.801001778165,9.78886228528882,
33,1.291744,0,6655.71917467812,500.06234480843,24.5822180601933,0.157500783096653,-219.138805052699,10.4426488933026,
34,1.272046,0,6655.103221811,500.499394265453,23.8536902838971,0.295661991036178,-220.774896573764,10.3384380922399,
35,1.264003,0,6655.31767183246,499.858567622263,22.94018194334,-0.295225321351695,-220.316535833109,9.96621410668247,
36,1.255688,0,6655.12721537106,499.51192074299,23.8926109029515,0.481359513603968,-219.666410351221,10.1392896780966,
37,1.231991,0,6655.41362211137,499.690369921979,24.5411455621503,-0.552414550511817,-219.996396192953,10.7435426370903,
38,1.229114,0,6655.24924137799,500.292559482769,24.1605657849871,-0.533771270341075,-220.402159936975,10.1685537036561,
39,1.226594,0,6655.36753292732,500.381371320361,24.1451779599506,-0.946752630844282,-219.225422777783,9.55556791278241,
40,1.219564,0,6655.54346006545,500.124267993237,24.1316992492563,0.344199260432475,-219.374275073311,10.6727906714727,
41,1.207072,0,6654.87645622922,500.255640804219,24.2739266931305,-0.625848990086381,-219.997859099308,10.2810243380576,
42,1.185781,0,6655.43438334818,500.182067726896,24.1941425924058,0.927209711756297,-220.044037156976,9.41430687293835,
43,1.181673,0,6655.0721731056,500.392342230018,24.2160548077303,-0.489604117484369,-219.990158211241,11.2381370279868,
44,1.16567,0,6655.05136608295,500.356127284721,23.8724104921992,0.7111226688797,-219.198495351682,10.1619377472876,
45,1.163287,0,6654.79103323958,500.440349371248,25.6248550783415,-0.354651443861577,-220.432959652516,9.21161486117567,
46,1.049003,0,6655.62039086063,500.60877408083,23.2378819430022,0.195867867392063,-220.260161783953,9.59717548193969,
47,1.041232,0,6654.60612891175,500.900005344298,23.9642637245236,0.234338588510864,-220.183023924082,9.56639003455903,
48,1.025733,0,6654.9510376961,499.918534785777,24.1926044762116,0.813501704986489,-219.516397184692,10.1796207458843,
49,1.014278,0,6655.35120645588,499.919008670316,23.5459032189743,-0.624039822929894,-219.274666005347,9.97268693278062,
50,0.993687,0,6655.81222720305,501.590694706027,24.3632678270478,0.314366877722059,-220.299140252864,10.197654908101,
51,0.981241,0,6652.91139411624,497.615762516047,24.750584050006,0.213325660910226,-220.253763122927,9.80304679696111,
52,0.980499,0,6654.59320239846,500.375342076752,25.0001047724946,0.296075713691519,-219.673096665557,10.5658907714466,
53,0.980356,0,6655.01293406951,500.306791415586,24.471439967536,0.644005062006839,-219.656775883797,11.0018090322209,
54,0.971547,0,6655.3670515142,499.852568148747,23.5699337346274,0.850391203882806,-220.045877547491,10.3625179589832,
55,0.930572,0,6655.33996915387,500.67104436695,24.1897218851883,-0.352585360193393,-219.945522676863,9.72804639568799,
56,0.864861,0,6656.48774730554,499.235944557876,22.1202934914061,0.0032577549071583,-220.020479608757,9.80680196110984,
57,0.854103,0,6655.5038620202,500.265241976264,23.7120860034084,-0.422300346204185,-219.912366601463,8.86432575968081,
58,0.851357,0,6655.4996618537,500.327852447269,24.197103665686,0.695458630304362,-220.432739394156,9.99841637807573,
59,0.848067,0,6655.19268262786,501.795962698566,23.9498786668822,0.051445270454319,-220.429896960449,9.51890431495891,
60,0.83971,0,6655.42325977326,500.040833231248,23.9927477658711,-0.889546192196253,-220.062742824873,10.4225971936262,
61,0.837439,0,6654.06513163894,499.394802441794,23.1485233937002,-0.485820805669002,-220.125886162469,10.0737333008251,
62,0.821566,0,6654.45944966867,500.194662949062,22.5386202990757,0.026544241406671,-220.467293007061,9.70430812294159,
63,0.800882,0,6654.76017791917,499.6467573149,23.6223216562544,0.239457408791922,-219.852241090282,10.1732495312443,
64,0.790313,0,6653.36560067282,501.466028516073,23.9960912692981,0.140763558458847,-220.239078003884,10.2509498007824,
65,0.774549,0,6655.44117374203,499.734988276618,24.8883401489642,-0.257875854945121,-220.290511083783,10.3521277872842,
66,0.763379,0,6655.33284606447,500.632015184664,23.8237571383653,0.92901224651629,-219.5574722531,10.2179515902973,
67,0.761964,0,6654.75028645901,500.232787684209,24.1755979724541,0.0555647181408072,-220.195256709341,9.6496008464469,
68,0.759833,0,6655.10661341882,500.187125623993,23.7321718773523,-0.221939222426297,-219.858614386474,10.9082547491652,
69,0.758853,0,6655.0922392313,500.15744544599,24.1444738685132,0.579373469988161,-220.040539455363,10.247130290608,
70,0.756635,0,6655.55676121527,499.540370618388,24.0824532594599,-0.836277844196218,-219.576145046596,9.8216946083809,
71,0.743776,0,6655.20006550867,499.36550074412,23.8740067719131,0.692023437857658,-219.854835047626,10.8583723437259,
72,0.736961,0,6653.84693091292,501.243413795267,23.3785259331675,-0.0001589377201728,-220.41432845597,10.1070798358496,
73,0.720496,0,6654.72514104651,500.232220197199,25.7960560263187,-0.0555485405620566,-220.137559671745,10.5336649328634,
74,0.708993,0,6654.29945625185,501.06223905058,23.8325962535447,-0.690168735396021,-220.107775458371,10.1594027220896,
75,0.700354,0,6655.312091959,501.388072052073,23.5217615583671,-0.128316693041996,-220.398215326377,9.37757973543772,
76,0.698718,0,6655.42631517337,499.946477132925,23.7110571998085,0.684200826038035,-219.848359338377,9.250393632426,
77,0.698195,0,6654.93062972963,500.143356030832,24.6013136902184,0.0530540786898552,-220.133975030581,9.35576780527538,
78,0.669485,0,6656.5644663869,503.31212532673,25.2813129581923,0.15024987038779,-220.153089648451,10.2493345229388,
79,0.663864,0,6654.93440694723,499.980684524875,24.3684037583993,0.409649426398642,-220.090473875849,9.94048009812222,
80,0.661193,0,6655.210217033,500.606834124739,23.2597878865604,0.264838565232843,-219.089640322347,10.4472879885227,
81,0.65904,0,6654.45860011775,500.617899418865,23.5317699355684,0.265509215484543,-219.782627561148,9.38097551804402,
82,0.646895,0,6654.62286430024,500.626330690206,23.7309774496003,0.198980455763608,-219.675176459056,9.07532138513254,
83,0.644804,0,6655.49882631901,500.785888215515,24.7027973929667,-0.0432587027623471,-220.45739468536,10.0021743136511,
84,0.643477,0,6654.59220641624,499.823493123611,23.7244529322342,0.386498981092643,-220.034515058289,10.7692337251328,
85,0.637369,0,6654.32917911197,499.947384958494,24.1848783855302,0.789189275705731,-220.00910569017,10.3301694147852,
86,0.633282,0,6655.6374610664,499.103817938646,24.2534766178687,-0.0461057449684169,-220.33606941017,10.3714136433678,
87,0.633249,0,6655.09890843462,499.841351381503,24.2269556695731,0.372730376473576,-220.06459969801,10.7495005158449,
88,0.625698,0,6655.35533308777,500.752423459279,24.4236623572031,0.39400968806065,-220.129773477658,10.2455196890584,
89,0.623683,0,6655.34320379166,499.977710754581,24.5898803421189,-0.862543974673436,-220.740528629352,10.3157784824051,
90,0.622138,0,6656.16007209242,501.284450277291,23.7387848013371,0.378035824266682,-220.114097355891,9.63104953976039,
91,0.619695,0,6655.28946568246,499.75216948152,23.8795326762661,0.374219784527115,-220.14747049063,9.86788772298362,
92,0.617443,0,6655.1516276416,500.184216479409,25.1210235605731,0.351665625333456,-220.809901760899,10.4277930172855,
93,0.617098,0,6655.69539843956,500.65189630019,24.4872387649975,0.689550094717298,-220.343739369017,9.91726891000552,
94,0.616798,0,6654.85146374377,500.659241541705,24.1327045881653,0.16971624796538,-220.212208350264,9.28604986876238,
95,0.614246,0,6654.98534226325,500.219129369959,24.2451017911845,-0.288607842031547,-219.457272177059,10.1102735392899,
96,0.613552,0,6655.24567797713,499.813773027915,24.4878747166573,0.358328416972043,-219.723696529864,9.98030160181034,
97,0.612212,0,6654.43751539471,500.994366070533,23.870342667571,-0.23088992732215,-219.963291380065,9.9713534170278,
98,0.610407,0,6654.03967356136,499.832728351183,24.6322036593724,0.177112708911791,-220.152958841269,10.4475457302705,
99,0.600869,0,6654.91576289187,500.757722925407,23.3556414210176,0.175314801030954,-220.352464622692,9.37104683585832,
100,0.595685,0,6654.91236633249,500.426621122876,23.9657799745207,-0.279892256776745,-219.782183442421,9.77028707946282,
101,0.595035,0,6655.24403199353,499.670732582979,24.646089615928,-0.105010100859597,-219.785200756327,10.2776344455865,
102,0.57475,0,6655.43391787063,500.889323569939,24.2224925708294,-0.194430189934272,-219.697770398102,10.604972861771,
103,0.573523,0,6654.21286889097,498.391310502494,24.8934989349118,-0.36223705809563,-219.768545322864,10.0267935708429,
104,0.570177,0,6654.49865274542,500.236133048841,24.3757211018608,-0.602941128447366,-220.453056509055,9.66653989229314,
105,0.570166,0,6655.3360895497,500.226594666783,24.6458213511174,-0.0561123478365729,-220.311327675212,10.6415431749907,
106,0.56656,0,6655.51002586788,499.888653379345,24.6720003636779,-0.160130339390836,-220.448663265864,10.2039030359998,
107,0.564846,0,6655.05408016523,500.173216644684,24.0590101983313,0.755553047705394,-220.314103260048,10.1527654245465,
108,0.558993,0,6655.76072672993,500.712888545868,24.6634015746547,0.46337443283349,-219.991793322248,10.5153173514947,
109,0.557054,0,6654.22667812526,501.01093500446,24.093616450371,0.152488608125886,-220.719527857325,10.1110822671703,
110,0.551151,0,6654.91221084048,499.917472199545,24.4279733960222,-0.199141240682093,-221.07381497455,10.496294456474,
111,0.549153,0,6654.56101709729,500.750368450016,24.054367472011,-0.371712151106159,-219.883808541309,10.2864634961623,
112,0.545792,0,6655.15078562647,499.660129561565,24.4683348287781,0.407280664873978,-219.371583105385,9.14319903520673,
113,0.535172,0,6655.3646084077,500.140955702963,25.1329571412052,-0.452376460555033,-220.186669608568,10.0613100511574,
114,0.534446,0,6654.91914480146,499.507671173463,24.707749596276,0.552123729945992,-220.594972957677,10.8507524362263,
115,0.533335,0,6655.10031063486,500.429296446706,24.269108047017,-0.290819488321304,-220.145402273001,9.98701767776641,
116,0.518231,0,6655.38172371795,500.516244196032,24.3929937406558,-0.712650906968635,-220.444789938248,10.7549611257699,
117,0.517443,0,6655.66469987166,499.981163482122,23.5148136792857,-0.495968843773361,-219.615800094507,10.5396381549976,
118,0.516369,0,6655.07407727453,500.24057576634,23.9463037085628,-0.784945538710733,-220.216234649437,10.1356888245259,
119,0.5129,0,6655.34729863536,500.327278826438,24.8441260156349,-0.163909938459272,-220.015036713929,10.3954641113407,
120,0.512671,0,6654.97826130938,500.285344515961,24.347537287538,-0.464779189196016,-220.56663729123,9.51852504726065,
121,0.512555,0,6655.08843742827,500.276484098631,23.8582690772692,-0.501751708044171,-220.714754792411,10.6216647694388,
122,0.51212,0,6654.53397299163,499.947836948924,24.346442881529,0.571214096113766,-219.934755029822,10.5090527239201,
123,0.512003,0,6655.74141356523,500.196212341949,24.4608314674218,-0.759897861235138,-219.997712927741,10.4316314053333,
124,0.50769,0,6654.97554898811,500.101415405864,24.0997250971404,0.0389394635917129,-219.556080032405,10.5040091706649,
125,0.50472,0,6654.98348298819,499.93110578601,24.6223686837466,-0.612858844403903,-219.936499933126,10.41828423077,
126,0.5023,0,6655.83899914549,501.230992365596,20.6548930236079,-0.213296074304553,-219.991869705979,10.5479378919588,
127,0.494729,0,6655.95560862429,500.879758826593,24.0774954219885,0.330253411502391,-219.709639897352,9.99842770596796,
128,0.493585,0,6655.24683607227,500.681818678969,24.3592011872664,-0.521798329111718,-220.31473314557,9.31028736753881,
129,0.493255,0,6654.81022150852,499.887819033111,24.321998188376,-0.913065584725445,-220.080939430259,9.59498408483923,
130,0.491474,0,6654.71227535392,499.951304984339,23.9395798317619,0.428623943257909,-220.985496826802,10.2290420666481,
131,0.490971,0,6655.24095248344,500.344945122241,25.1598176421121,-0.504715046880961,-220.811666690662,9.9746811213266,
132,0.478625,0,6655.00597195039,499.785086287404,24.0563222801518,0.194432607160751,-219.864800239094,9.88100722605598,
133,0.477493,0,6654.34026724106,501.903432675051,24.4316204949047,-0.421968341398349,-219.642022559783,10.0934695257366,
134,0.471591,0,6655.30207033382,499.562157378211,24.3272907168941,-0.593146157054,-220.673273012988,9.83688857375695,
135,0.467175,0,6655.540294101,500.261551016576,24.3810704554789,-0.305435110764713,-220.447912093294,9.72313560003648,
136,0.466193,0,6655.12048877562,499.889203399922,23.8274771678661,0.0512440048506425,-219.762354824008,10.1294292756642,
137,0.464949,0,6654.3265438785,499.6991375913,23.9909625801797,-0.0855667137341481,-219.539293132597,10.2208831844765,
138,0.464282,0,6654.48239221905,500.63100295721,23.9925134996577,-0.195885414084483,-219.619611029767,10.5134365532512,
139,0.461726,0,6654.6588670789,500.520301204413,24.1308097006735,-0.434948116144978,-218.899421908466,9.88039598839307,
140,0.460266,0,6655.35163393372,501.121567973992,24.1650290371285,-0.29782658875613,-219.316567039105,9.81946894533992,
141,0.456266,0,6655.08223353919,499.801992166425,23.9309329659373,0.0730930366559098,-220.714577024996,9.33625699672975,
142,0.453501,0,6654.68877627935,500.294660273278,23.9301837967153,0.87977309914454,-220.740085923637,10.8624843184989,
143,0.453065,0,6656.79319139224,500.888072331669,25.1956324958325,-0.0610916595519327,-219.544654291867,10.1538088353424,
144,0.449689,0,6655.27058548262,500.481529190451,23.8464573657838,-0.434595041788898,-220.049177221226,11.3751482803576,
145,0.449178,0,6654.92158319631,500.383499784777,24.0359202725263,0.186591759409749,-220.321569047438,10.0200939909812,
146,0.447207,0,6656.76581811074,500.469232162025,23.8373442478011,0.438807311252766,-219.914377730633,9.94003680630713,
147,0.441009,0,6654.87116438172,500.17782632427,24.3453143517637,0.116147419061797,-219.996030775507,10.2163102107217,
148,0.438472,0,6654.84654123259,499.877004050439,23.4912308323872,-0.444089153827672,-220.027875074392,11.3156756340766,
149,0.436813,0,6654.64672590564,500.332165321674,23.8042379079167,0.145429621691559,-221.133072277555,9.77986380830902,
150,0.434094,0,6654.70319047399,499.341876142508,23.5130184729844,-0.382547498319125,-220.19920905033,10.0075640691989,
151,0.433081,0,6655.21078385699,499.561806853954,25.0724866464865,-0.172773230444649,-220.128714361983,9.7545143506786,
152,0.432741,0,6655.05107653936,500.487303627748,24.7486283688209,-0.757208227768911,-219.981148350895,10.3996663003869,
153,0.431134,0,6655.72032776795,500.450759456678,24.9003610003008,0.0133747188346004,-219.665227920084,10.1210140414798,
154,0.428426,0,6655.91244042304,500.138666657329,24.0688418681145,0.31274669861292,-219.83195915225,9.82694766493131,
155,0.426354,0,6655.18371748503,499.959105139806,24.4482287402902,0.564667220376877,-220.540077425538,9.82822402966291,
156,0.415294,0,6655.83417552614,498.722518750628,23.2263009229069,-0.110385048408376,-219.929991915042,9.62569881886328,
157,0.41463,0,6654.94490215789,499.346106376504,23.0593631709662,0.113998183205618,-219.899401479232,9.47120713237701,
158,0.407241,0,6655.11384697455,500.175229368763,24.4321930925234,0.62380891410625,-221.00970494789,10.0490713086663,
159,0.406475,0,6655.26903379627,500.570088563513,24.3016228199671,-0.18949223289898,-220.236985547907,10.4677681027233,
160,0.406291,0,6654.75219431982,500.444555267513,23.7642533124916,0.245562030563613,-221.114080296263,9.71285782848877,
161,0.405678,0,6657.45048406888,500.692707811259,23.1313013031905,0.382876152246935,-219.807524973718,9.95244114953615,
162,0.401647,0,6655.33588820886,500.063047217566,23.8535269879978,-0.273858174372393,-219.503374128501,10.4575854179943,
163,0.398065,0,6652.84409355316,502.519935513873,24.3597488373909,0.125414540460753,-219.678436130622,10.352700245021,
164,0.39747,0,6655.34423960062,500.254647245262,24.0786448212731,-0.454338800239543,-220.1782930497,9.54985528630245,
165,0.394471,0,6654.51028005756,500.107138984832,23.9159003389518,-0.721533067736288,-219.91624385709,10.134627229733,
166,0.393316,0,6654.83579290547,499.409583252931,24.1917226886406,0.118478033689571,-220.844555854833,10.6513888756339,
167,0.392526,0,6656.00966020851,500.400937812603,25.4686843829802,-0.0748968184861246,-219.899910702791,9.7017846896872,
